Frequency (Hz)  Imag permit
5E12	0.02017
5.05851E12	0.02066
5.11312E12	0.02114
5.17552E12	0.02169
5.23402E12	0.02223
5.29253E12	0.02278
5.34717E12	0.0233
5.40954E12	0.02392
5.46805E12	0.02451
5.52655E12	0.02512
5.58506E12	0.02575
5.64356E12	0.02639
5.70207E12	0.02705
5.76058E12	0.02773
5.81908E12	0.02842
5.87759E12	0.02914
5.9556E12	0.03012
6.0336E12	0.03113
6.09612E12	0.03197
6.17012E12	0.033
6.23655E12	0.03395
6.30663E12	0.03498
6.37698E12	0.03606
6.44314E12	0.03709
6.5174E12	0.0383
6.59916E12	0.03967
6.67717E12	0.04103
6.75145E12	0.04236
6.83318E12	0.04389
6.91119E12	0.0454
6.9855E12	0.04688
7.06721E12	0.04857
7.14521E12	0.05025
7.21954E12	0.0519
7.30123E12	0.05378
7.37924E12	0.05563
7.45359E12	0.05747
7.53525E12	0.05955
7.61326E12	0.06161
7.69127E12	0.06374
7.76928E12	0.06595
7.84728E12	0.06823
7.94479E12	0.0712
8.0423E12	0.0743
8.13981E12	0.07753
8.23732E12	0.0809
8.33483E12	0.08441
8.43234E12	0.08808
8.52985E12	0.0919
8.62382E12	0.09574
8.71744E12	0.09971
8.81106E12	0.10385
8.90039E12	0.10795
8.9979E12	0.1126
9.09192E12	0.11727
9.18554E12	0.1221
9.27916E12	0.12713
9.37277E12	0.13235
9.46639E12	0.13777
9.56346E12	0.14361
9.66097E12	0.14971
9.75848E12	0.15606
9.85599E12	0.16265
9.973E12	0.17091
1.00749E13	0.17842
1.01875E13	0.18706
1.03045E13	0.19645
1.04215E13	0.20627
1.05386E13	0.21653
1.06556E13	0.22725
1.07726E13	0.23845
1.08896E13	0.25014
1.10066E13	0.26234
1.11236E13	0.27507
1.12406E13	0.28834
1.13576E13	0.30217
1.14746E13	0.31658
1.15917E13	0.33159
1.17087E13	0.34721
1.18257E13	0.36346
1.19473E13	0.38104
1.20792E13	0.40092
1.22157E13	0.42242
1.23522E13	0.44488
1.24887E13	0.46834
1.26253E13	0.49282
1.27618E13	0.51835
1.28983E13	0.54496
1.30348E13	0.57268
1.31713E13	0.60152
1.33048E13	0.63084
1.34443E13	0.66272
1.35809E13	0.69512
1.37174E13	0.72875
1.38665E13	0.76692
1.40069E13	0.80427
1.41464E13	0.84273
1.42878E13	0.8831
1.44389E13	0.92787
1.4595E13	0.97581
1.4751E13	1.02555
1.4907E13	1.07709
1.5063E13	1.13045
1.5219E13	1.18565
1.5375E13	1.24268
1.55311E13	1.30156
1.56871E13	1.36227
1.58626E13	1.43277
1.60381E13	1.50557
1.62069E13	1.57775
1.63696E13	1.64927
1.65346E13	1.72374
1.67012E13	1.80087
1.68767E13	1.88421
1.70495E13	1.96827
1.72277E13	2.05696
1.74032E13	2.14622
1.75788E13	2.23728
1.77543E13	2.33004
1.79389E13	2.42932
1.81248E13	2.53092
1.83134E13	2.63548
1.85006E13	2.74064
1.86878E13	2.84694
1.88751E13	2.95419
1.90804E13	3.07265
1.92754E13	3.18574
1.94704E13	3.29911
1.96655E13	3.41252
1.988E13	3.53697
2.00921E13	3.65936
2.0309E13	3.78344
2.05134E13	3.89898
2.07186E13	4.01328
2.09331E13	4.13059
2.11476E13	4.24524
2.13621E13	4.35683
2.15767E13	4.46496
2.18107E13	4.57848
2.20447E13	4.68688
2.22787E13	4.78966
2.25128E13	4.88635
2.27468E13	4.97649
2.29808E13	5.05966
2.32148E13	5.13544
2.34488E13	5.20349
2.36829E13	5.26347
2.39169E13	5.31508
2.41509E13	5.35809
2.43849E13	5.39228
2.4619E13	5.41749
2.4853E13	5.43362
2.5087E13	5.4406
2.51455E13	5.44091
2.53795E13	5.43643
2.56136E13	5.42282
2.58476E13	5.40018
2.60816E13	5.36865
2.63156E13	5.32841
2.65497E13	5.27969
2.67837E13	5.22275
2.70177E13	5.15792
2.72517E13	5.08554
2.74857E13	5.00598
2.77198E13	4.91967
2.79538E13	4.82704
2.81878E13	4.72855
2.84218E13	4.6247
2.86559E13	4.51596
2.88899E13	4.40286
2.91239E13	4.28592
2.93579E13	4.16564
2.9592E13	4.04256
2.9826E13	3.91718
3.006E13	3.79002
3.0294E13	3.66155
3.05281E13	3.53227
3.07621E13	3.40263
3.09961E13	3.27307
3.12301E13	3.14401
3.14641E13	3.01582
3.16982E13	2.88888
3.19322E13	2.76351
3.21662E13	2.64001
3.24002E13	2.51867
3.26343E13	2.39972
3.28683E13	2.28338
3.31023E13	2.16983
3.33363E13	2.05924
3.35704E13	1.95173
3.38044E13	1.84741
3.40384E13	1.74637
3.42724E13	1.64868
3.45065E13	1.55437
3.47405E13	1.46349
3.49745E13	1.37604
3.52085E13	1.29202
3.54425E13	1.21143
3.56766E13	1.13424
3.59106E13	1.06043
3.61446E13	0.98996
3.63786E13	0.92279
3.66127E13	0.85886
3.68467E13	0.79814
3.70807E13	0.74055
3.73147E13	0.68603
3.75488E13	0.63453
3.77828E13	0.58597
3.80168E13	0.54028
3.82508E13	0.49737
3.84848E13	0.45717
3.87189E13	0.4196
3.89529E13	0.38455
3.91869E13	0.35195
3.94209E13	0.32168
3.9655E13	0.29367
3.9889E13	0.2678
4.0123E13	0.24396
4.0357E13	0.22207
4.05911E13	0.202
4.08251E13	0.18366
4.10591E13	0.16694
4.12931E13	0.15173
4.15272E13	0.13793
4.17612E13	0.12544
4.19952E13	0.11416
4.22292E13	0.10401
4.24632E13	0.09488
4.26973E13	0.08669
4.29313E13	0.07935
4.31653E13	0.0728
4.33993E13	0.06696
4.36334E13	0.06175
4.38674E13	0.05712
4.41014E13	0.053
4.43354E13	0.04935
4.45695E13	0.04611
4.48035E13	0.04324
4.50375E13	0.0407
4.52715E13	0.03845
4.55056E13	0.03646
4.57396E13	0.03469
4.59736E13	0.03313
4.62076E13	0.03174
4.64416E13	0.03052
4.66757E13	0.02943
4.69097E13	0.02846
4.71437E13	0.0276
4.73777E13	0.02683
4.76118E13	0.02615
4.78458E13	0.02554
4.80798E13	0.025
4.83138E13	0.02452
4.85479E13	0.02408
4.87819E13	0.0237
4.90159E13	0.02335
4.92499E13	0.02304
4.94839E13	0.02276
4.9718E13	0.02252
4.9952E13	0.0223
5.0186E13	0.0221
5.042E13	0.02192
5.06541E13	0.02177
5.08881E13	0.02163
5.11221E13	0.02151
5.13561E13	0.02141
5.15902E13	0.02131
5.18242E13	0.02124
5.20582E13	0.02117
5.22922E13	0.02112
5.25263E13	0.02107
5.27603E13	0.02104
5.29943E13	0.02101
5.32283E13	0.021
5.34623E13	0.02099
5.36379E13	0.02099
5.38719E13	0.02099
5.41059E13	0.021
5.43399E13	0.02102
5.4574E13	0.02104
5.4808E13	0.02107
5.5042E13	0.0211
5.5276E13	0.02114
5.55101E13	0.02118
5.57441E13	0.02123
5.59781E13	0.02128
5.62121E13	0.02133
5.64461E13	0.02139
5.66802E13	0.02145
5.69142E13	0.02152
5.71482E13	0.02158
5.73822E13	0.02166
5.76163E13	0.02173
5.78503E13	0.0218
5.80843E13	0.02188
5.83183E13	0.02196
5.85524E13	0.02204
5.87864E13	0.02212
5.90204E13	0.02221
5.92544E13	0.02229
5.94884E13	0.02238
5.97225E13	0.02246
5.99565E13	0.02255
6.01905E13	0.02264
6.04245E13	0.02273
6.06586E13	0.02282
6.08926E13	0.02291
6.11266E13	0.023
6.13606E13	0.02309
6.15947E13	0.02318
6.18287E13	0.02326
6.20627E13	0.02335
6.22967E13	0.02344
6.25308E13	0.02353
6.27648E13	0.02362
6.29988E13	0.0237
6.32328E13	0.02379
6.34668E13	0.02387
6.37009E13	0.02395
6.39349E13	0.02404
6.41689E13	0.02412
6.44029E13	0.02419
6.4637E13	0.02427
6.4871E13	0.02435
6.5105E13	0.02442
6.5339E13	0.02449
6.55731E13	0.02456
6.58071E13	0.02463
6.60411E13	0.0247
6.62751E13	0.02476
6.65092E13	0.02482
6.67432E13	0.02488
6.69772E13	0.02494
6.72112E13	0.02499
6.74452E13	0.02505
6.76793E13	0.0251
6.79133E13	0.02514
6.81473E13	0.02519
6.83813E13	0.02523
6.86154E13	0.02527
6.88494E13	0.0253
6.90834E13	0.02534
6.93174E13	0.02537
6.95515E13	0.02539
6.97855E13	0.02542
7.00195E13	0.02544
7.02535E13	0.02546
7.04875E13	0.02547
7.07216E13	0.02548
7.09556E13	0.02549
7.11896E13	0.0255
7.14041E13	0.0255
7.16382E13	0.0255
7.18722E13	0.02549
7.21062E13	0.02548
7.23402E13	0.02547
7.25743E13	0.02546
7.28083E13	0.02544
7.30423E13	0.02541
7.32763E13	0.02539
7.35104E13	0.02536
7.37444E13	0.02533
7.39784E13	0.02529
7.42124E13	0.02525
7.44464E13	0.02521
7.46805E13	0.02516
7.49145E13	0.02511
7.51485E13	0.02506
7.53825E13	0.025
7.56166E13	0.02494
7.58506E13	0.02488
7.60846E13	0.02481
7.63186E13	0.02474
7.65527E13	0.02467
7.67867E13	0.02459
7.70207E13	0.02451
7.72547E13	0.02442
7.74887E13	0.02433
7.77228E13	0.02424
7.79568E13	0.02415
7.81908E13	0.02405
7.84248E13	0.02395
7.86589E13	0.02385
7.88929E13	0.02374
7.91269E13	0.02363
7.93609E13	0.02352
7.9595E13	0.0234
7.9829E13	0.02328
8.0063E13	0.02316
8.0297E13	0.02304
8.05311E13	0.02291
8.07651E13	0.02278
8.09991E13	0.02264
8.12331E13	0.02251
8.14671E13	0.02237
8.17012E13	0.02223
8.19352E13	0.02208
8.21692E13	0.02194
8.24032E13	0.02179
8.26373E13	0.02164
8.28713E13	0.02148
8.31053E13	0.02133
8.33393E13	0.02117
8.35734E13	0.02101
8.38074E13	0.02085
8.40414E13	0.02069
8.42754E13	0.02052
8.45095E13	0.02035
8.47435E13	0.02018
8.49775E13	0.02001
8.52115E13	0.01984
8.54455E13	0.01966
8.56796E13	0.01949
8.59136E13	0.01931
8.61476E13	0.01913
8.63816E13	0.01895
8.66157E13	0.01877
8.68497E13	0.01859
8.70837E13	0.01841
8.73177E13	0.01822
8.75518E13	0.01803
8.77858E13	0.01785
8.80198E13	0.01766
8.82538E13	0.01747
8.84878E13	0.01728
8.87219E13	0.01709
8.89559E13	0.0169
8.91899E13	0.01671
8.94239E13	0.01652
8.9658E13	0.01633
8.9892E13	0.01614
9.0126E13	0.01595
9.036E13	0.01575
9.05941E13	0.01556
9.08281E13	0.01537
9.10621E13	0.01518
9.12961E13	0.01498
9.15302E13	0.01479
9.17642E13	0.0146
9.19982E13	0.01441
9.22322E13	0.01422
9.24662E13	0.01402
9.27003E13	0.01383
9.29343E13	0.01364
9.31683E13	0.01345
9.34023E13	0.01326
9.36364E13	0.01307
9.38704E13	0.01289
9.41044E13	0.0127
9.43384E13	0.01251
9.45725E13	0.01233
9.48065E13	0.01214
9.50405E13	0.01196
9.52745E13	0.01178
9.55086E13	0.01159
9.57426E13	0.01141
9.59766E13	0.01123
9.62106E13	0.01105
9.64446E13	0.01088
9.66787E13	0.0107
9.69127E13	0.01053
9.71467E13	0.01035
9.73807E13	0.01018
9.76148E13	0.01001
9.78488E13	0.00984
9.80828E13	0.00967
9.83168E13	0.0095
9.85509E13	0.00934
9.87849E13	0.00917
9.90189E13	0.00901
9.92529E13	0.00885
9.94869E13	0.00869
9.9721E13	0.00853
9.9955E13	0.00838
1.00189E14	0.00822
1.00423E14	0.00807
1.00657E14	0.00792
1.00891E14	0.00777
1.01125E14	0.00762
1.01359E14	0.00748
1.01593E14	0.00733
1.01827E14	0.00719
1.02061E14	0.00705
1.02295E14	0.00691
1.0257E14	0.00675
1.02804E14	0.00662
1.03038E14	0.00648
1.03272E14	0.00635
1.03506E14	0.00622
1.0374E14	0.00609
1.03974E14	0.00597
1.04209E14	0.00584
1.04443E14	0.00572
1.04677E14	0.0056
1.04911E14	0.00548
1.05145E14	0.00537
1.05379E14	0.00525
1.05613E14	0.00514
1.05847E14	0.00503
1.06081E14	0.00492
1.06315E14	0.00481
1.06549E14	0.0047
1.06783E14	0.0046
1.07017E14	0.0045
1.07251E14	0.0044
1.07485E14	0.0043
1.07719E14	0.0042
1.07953E14	0.0041
1.08187E14	0.00401
1.08421E14	0.00392
1.08655E14	0.00383
1.08889E14	0.00374
1.09124E14	0.00365
1.09358E14	0.00357
1.09592E14	0.00348
1.09826E14	0.0034
1.1006E14	0.00332
1.10294E14	0.00324
1.10528E14	0.00316
1.10762E14	0.00309
1.10996E14	0.00301
1.1123E14	0.00294
1.11464E14	0.00287
1.11698E14	0.0028
1.11932E14	0.00273
1.12166E14	0.00266
1.124E14	0.0026
1.12634E14	0.00253
1.12868E14	0.00247
1.13102E14	0.00241
1.13336E14	0.00235
1.1357E14	0.00229
1.13804E14	0.00223
1.14039E14	0.00218
1.14273E14	0.00212
1.14507E14	0.00207
1.14741E14	0.00202
1.14975E14	0.00197
1.15209E14	0.00192
1.15443E14	0.00187
1.15677E14	0.00182
1.15911E14	0.00177
1.16145E14	0.00173
1.16379E14	0.00168
1.16613E14	0.00164
1.16847E14	0.0016
1.17081E14	0.00156
1.17315E14	0.00152
1.17549E14	0.00148
1.17783E14	0.00144
1.18017E14	0.00141
1.18251E14	0.00137
1.18485E14	0.00134
1.18719E14	0.0013
1.18953E14	0.00127
1.19188E14	0.00124
1.19422E14	0.0012
1.19656E14	0.00117
1.1989E14	0.00114
1.20124E14	0.00111
1.20358E14	0.00109
1.20592E14	0.00106
1.20826E14	0.00103
1.2106E14	0.00101
1.21294E14	9.81455E-4
1.21528E14	9.56959E-4
1.21762E14	9.3315E-4
1.21996E14	9.10012E-4
1.2223E14	8.87528E-4
1.22464E14	8.65683E-4
1.22698E14	8.44463E-4
1.22932E14	8.23851E-4
1.23166E14	8.03832E-4
1.234E14	7.84393E-4
1.23634E14	7.65519E-4
1.23868E14	7.47195E-4
1.24103E14	7.29408E-4
1.24337E14	7.12144E-4
1.24571E14	6.9539E-4
1.24805E14	6.79131E-4
1.25039E14	6.63356E-4
1.25273E14	6.48052E-4
1.25507E14	6.33205E-4
1.25741E14	6.18804E-4
1.25975E14	6.04837E-4
1.26209E14	5.91291E-4
1.26443E14	5.78156E-4
1.26677E14	5.6542E-4
1.26911E14	5.53072E-4
1.27145E14	5.41101E-4
1.27379E14	5.29496E-4
1.27613E14	5.18247E-4
1.27847E14	5.07344E-4
1.28081E14	4.96776E-4
1.28315E14	4.86535E-4
1.28549E14	4.7661E-4
1.28783E14	4.66992E-4
1.29018E14	4.57673E-4
1.29252E14	4.48643E-4
1.29486E14	4.39893E-4
1.2972E14	4.31416E-4
1.29954E14	4.23202E-4
1.30188E14	4.15244E-4
1.30422E14	4.07534E-4
1.30656E14	4.00065E-4
1.3089E14	3.92828E-4
1.31124E14	3.85818E-4
1.31358E14	3.79025E-4
1.31592E14	3.72444E-4
1.31826E14	3.66068E-4
1.3206E14	3.59891E-4
1.32294E14	3.53905E-4
1.32528E14	3.48106E-4
1.32762E14	3.42486E-4
1.32996E14	3.3704E-4
1.3323E14	3.31762E-4
1.33464E14	3.26647E-4
1.33698E14	3.21689E-4
1.33932E14	3.16884E-4
1.34167E14	3.12225E-4
1.34401E14	3.07709E-4
1.34635E14	3.0333E-4
1.34869E14	2.99084E-4
1.35103E14	2.94966E-4
1.35337E14	2.90972E-4
1.35571E14	2.87098E-4
1.35805E14	2.83339E-4
1.36039E14	2.79691E-4
1.36273E14	2.76152E-4
1.36507E14	2.72716E-4
1.36741E14	2.6938E-4
1.36975E14	2.66142E-4
1.37209E14	2.62997E-4
1.37443E14	2.59942E-4
1.37677E14	2.56974E-4
1.37911E14	2.5409E-4
1.38145E14	2.51287E-4
1.38379E14	2.48562E-4
1.38613E14	2.45913E-4
1.38847E14	2.43335E-4
1.39082E14	2.40828E-4
1.39316E14	2.38389E-4
1.3955E14	2.36015E-4
1.39784E14	2.33703E-4
1.40018E14	2.31452E-4
1.40252E14	2.29259E-4
1.40486E14	2.27122E-4
1.4072E14	2.25039E-4
1.40954E14	2.23009E-4
1.41188E14	2.21029E-4
1.41422E14	2.19097E-4
1.41656E14	2.17212E-4
1.4189E14	2.15373E-4
1.42124E14	2.13576E-4
1.42358E14	2.11821E-4
1.42592E14	2.10107E-4
1.42826E14	2.08431E-4
1.4306E14	2.06793E-4
1.43294E14	2.05191E-4
1.43528E14	2.03624E-4
1.43762E14	2.0209E-4
1.43996E14	2.00588E-4
1.44231E14	1.99118E-4
1.44465E14	1.97678E-4
1.44699E14	1.96266E-4
1.44933E14	1.94882E-4
1.45167E14	1.93526E-4
1.45401E14	1.92195E-4
1.45635E14	1.90889E-4
1.45869E14	1.89607E-4
1.46103E14	1.88349E-4
1.46337E14	1.87113E-4
1.46571E14	1.85899E-4
1.46805E14	1.84705E-4
1.47039E14	1.83532E-4
1.47273E14	1.82378E-4
1.47507E14	1.81243E-4
1.47741E14	1.80126E-4
1.47975E14	1.79027E-4
1.48209E14	1.77945E-4
1.48443E14	1.76879E-4
1.48677E14	1.75829E-4
1.48911E14	1.74794E-4
1.49146E14	1.73775E-4
1.4938E14	1.72769E-4
1.49614E14	1.71777E-4
1.49848E14	1.70799E-4
1.50082E14	1.69834E-4
1.50316E14	1.68881E-4
1.5055E14	1.67941E-4
1.50784E14	1.67012E-4
1.51018E14	1.66095E-4
1.51252E14	1.65189E-4
1.51486E14	1.64294E-4
1.5172E14	1.63409E-4
1.51954E14	1.62535E-4
1.52188E14	1.6167E-4
1.52422E14	1.60815E-4
1.52656E14	1.59969E-4
1.5289E14	1.59133E-4
1.53124E14	1.58305E-4
1.53358E14	1.57486E-4
1.53592E14	1.56675E-4
1.53826E14	1.55872E-4
1.54061E14	1.55077E-4
1.54295E14	1.5429E-4
1.54529E14	1.53511E-4
1.54763E14	1.52739E-4
1.54997E14	1.51974E-4
1.55231E14	1.51216E-4
1.55465E14	1.50464E-4
1.55699E14	1.4972E-4
1.55933E14	1.48982E-4
1.56167E14	1.48251E-4
1.56401E14	1.47525E-4
1.56635E14	1.46806E-4
1.56869E14	1.46093E-4
1.57103E14	1.45386E-4
1.57337E14	1.44684E-4
1.57571E14	1.43989E-4
1.57805E14	1.43298E-4
1.58039E14	1.42613E-4
1.58273E14	1.41934E-4
1.58507E14	1.4126E-4
1.58741E14	1.4059E-4
1.58975E14	1.39926E-4
1.5921E14	1.39267E-4
1.59444E14	1.38613E-4
1.59678E14	1.37963E-4
1.59912E14	1.37319E-4
1.60146E14	1.36679E-4
1.6038E14	1.36043E-4
1.60614E14	1.35412E-4
1.60848E14	1.34785E-4
1.61082E14	1.34163E-4
1.61316E14	1.33545E-4
1.6155E14	1.32932E-4
1.61784E14	1.32322E-4
1.62018E14	1.31717E-4
1.62252E14	1.31116E-4
1.62486E14	1.30518E-4
1.6272E14	1.29925E-4
1.62954E14	1.29336E-4
1.63188E14	1.2875E-4
1.63422E14	1.28169E-4
1.63656E14	1.27591E-4
1.6389E14	1.27017E-4
1.64125E14	1.26446E-4
1.64359E14	1.2588E-4
1.64593E14	1.25316E-4
1.64827E14	1.24757E-4
1.65061E14	1.24201E-4
1.65295E14	1.23648E-4
1.65529E14	1.23099E-4
1.65763E14	1.22553E-4
1.65997E14	1.22011E-4
1.66231E14	1.21472E-4
1.66465E14	1.20937E-4
1.66699E14	1.20404E-4
1.66933E14	1.19875E-4
1.67167E14	1.19349E-4
1.67401E14	1.18827E-4
1.67635E14	1.18307E-4
1.67869E14	1.17791E-4
1.68103E14	1.17278E-4
1.68337E14	1.16768E-4
1.68571E14	1.1626E-4
1.68805E14	1.15756E-4
1.6904E14	1.15255E-4
1.69274E14	1.14757E-4
1.69508E14	1.14262E-4
1.69742E14	1.1377E-4
1.69976E14	1.1328E-4
1.7021E14	1.12794E-4
1.70444E14	1.1231E-4
1.70678E14	1.1183E-4
1.70912E14	1.11352E-4
1.71146E14	1.10876E-4
1.7138E14	1.10404E-4
1.71614E14	1.09934E-4
1.71848E14	1.09467E-4
1.72082E14	1.09003E-4
1.72316E14	1.08541E-4
1.7255E14	1.08082E-4
1.72784E14	1.07626E-4
1.73018E14	1.07172E-4
1.73252E14	1.06721E-4
1.73486E14	1.06272E-4
1.7372E14	1.05826E-4
1.73954E14	1.05383E-4
1.74189E14	1.04942E-4
1.74423E14	1.04503E-4
1.74657E14	1.04067E-4
1.74891E14	1.03634E-4
1.75125E14	1.03203E-4
1.75359E14	1.02774E-4
1.75593E14	1.02348E-4
1.75827E14	1.01924E-4
1.76061E14	1.01502E-4
1.76295E14	1.01083E-4
1.76529E14	1.00666E-4
1.76763E14	1.00251E-4
1.76997E14	9.98392E-5
1.77231E14	9.94293E-5
1.77465E14	9.90215E-5
1.77699E14	9.86161E-5
1.77933E14	9.82129E-5
1.78167E14	9.78119E-5
1.78401E14	9.74131E-5
1.78635E14	9.70165E-5
1.78869E14	9.6622E-5
1.79104E14	9.62297E-5
1.79338E14	9.58396E-5
1.79572E14	9.54516E-5
1.79806E14	9.50657E-5
1.8004E14	9.46819E-5
1.80274E14	9.43002E-5
1.80508E14	9.39205E-5
1.80742E14	9.35429E-5
1.80976E14	9.31674E-5
1.8121E14	9.27939E-5
1.81444E14	9.24224E-5
1.81678E14	9.20528E-5
1.81912E14	9.16853E-5
1.82146E14	9.13198E-5
1.8238E14	9.09562E-5
1.82614E14	9.05945E-5
1.82848E14	9.02348E-5
1.83082E14	8.9877E-5
1.83316E14	8.95211E-5
1.8355E14	8.91671E-5
1.83784E14	8.8815E-5
1.84019E14	8.84647E-5
1.84253E14	8.81163E-5
1.84487E14	8.77698E-5
1.84721E14	8.74251E-5
1.84955E14	8.70822E-5
1.85189E14	8.67411E-5
1.85423E14	8.64018E-5
1.85657E14	8.60642E-5
1.85891E14	8.57285E-5
1.86125E14	8.53945E-5
1.86359E14	8.50623E-5
1.86593E14	8.47318E-5
1.86827E14	8.4403E-5
1.87061E14	8.40759E-5
1.87295E14	8.37505E-5
1.87529E14	8.34269E-5
1.87763E14	8.31049E-5
1.87997E14	8.27845E-5
1.88231E14	8.24658E-5
1.88465E14	8.21488E-5
1.88699E14	8.18334E-5
1.88933E14	8.15197E-5
1.89168E14	8.12075E-5
1.89402E14	8.0897E-5
1.89636E14	8.0588E-5
1.8987E14	8.02807E-5
1.90104E14	7.99749E-5
1.90338E14	7.96706E-5
1.90572E14	7.9368E-5
1.90806E14	7.90668E-5
1.9104E14	7.87672E-5
1.91274E14	7.84692E-5
1.91508E14	7.81726E-5
1.91742E14	7.78775E-5
1.91976E14	7.7584E-5
1.9221E14	7.72919E-5
1.92444E14	7.70013E-5
1.92678E14	7.67122E-5
1.92912E14	7.64245E-5
1.93146E14	7.61382E-5
1.9338E14	7.58534E-5
1.93614E14	7.55701E-5
1.93848E14	7.52881E-5
1.94083E14	7.50076E-5
1.94317E14	7.47285E-5
1.94551E14	7.44507E-5
1.94785E14	7.41744E-5
1.95019E14	7.38994E-5
1.95253E14	7.36258E-5
1.95487E14	7.33536E-5
1.95721E14	7.30827E-5
1.95955E14	7.28131E-5
1.96189E14	7.25449E-5
1.96423E14	7.2278E-5
1.96657E14	7.20124E-5
1.96891E14	7.17482E-5
1.97125E14	7.14852E-5
1.97359E14	7.12235E-5
1.97593E14	7.09631E-5
1.97827E14	7.0704E-5
1.98061E14	7.04462E-5
1.98295E14	7.01896E-5
1.98529E14	6.99343E-5
1.98763E14	6.96802E-5
1.98997E14	6.94273E-5
1.99232E14	6.91757E-5
1.99466E14	6.89253E-5
1.997E14	6.86761E-5
1.99934E14	6.84282E-5