Frequency (Hz)  beta (rad/m)
2.5E13	-0.02052
2.55E13	-0.01399
2.6E13	-0.00741
2.65E13	-0.00182
2.7E13	0.00218
2.75E13	0.00875
2.8E13	0.01074
2.85E13	0.01395
2.9E13	0.01482
2.95E13	0.01501
3E13	0.01687
3.05E13	0.01551
3.1E13	0.01468
3.15E13	0.01141
3.2E13	0.00881
3.25E13	0.00558
3.3E13	9.0321E-4
3.35E13	-0.00462
3.4E13	-0.0091
3.45E13	-0.01377
3.5E13	-0.01928
3.55E13	-0.02631
3.6E13	-0.03247
3.65E13	-0.03849
3.7E13	-0.04428
3.75E13	-0.05137
3.8E13	-0.05764
3.85E13	-0.06248
3.9E13	-0.0702
3.95E13	-0.07726
4E13	-0.08223
4.05E13	-0.08847
4.1E13	-0.09314
4.15E13	-0.09717
4.2E13	-0.10378
4.25E13	-0.10728
4.3E13	-0.11298
4.35E13	-0.11717
4.4E13	-0.12044
4.45E13	-0.12341
4.5E13	-0.12671
4.55E13	-0.13195
4.6E13	-0.13497
4.65E13	-0.13781
4.7E13	-0.13888
4.75E13	-0.14003
4.8E13	-0.14416
4.85E13	-0.1459
4.9E13	-0.14784
4.95E13	-0.15037
5E13	-0.15158
5.05E13	-0.15526
5.1E13	-0.15626
5.15E13	-0.15912
5.2E13	-0.16061
5.25E13	-0.1616
5.3E13	-0.16406
5.35E13	-0.16539
5.4E13	-0.1673
5.45E13	-0.16996
5.5E13	-0.16992
5.55E13	-0.17379
5.6E13	-0.17437
5.65E13	-0.176
5.7E13	-0.17605
5.75E13	-0.17851
5.8E13	-0.18016
5.85E13	-0.18174
5.9E13	-0.18328
5.95E13	-0.18352
6E13	-0.18546
6.05E13	-0.18677
6.1E13	-0.1875
6.15E13	-0.18758
6.2E13	-0.19057
6.25E13	-0.19101
6.3E13	-0.19173
6.35E13	-0.19219
6.4E13	-0.19378
6.45E13	-0.19455
6.5E13	-0.19436
6.55E13	-0.19717
6.6E13	-0.19782
6.65E13	-0.19728
6.7E13	-0.19561
6.75E13	-0.19504
6.8E13	-0.1964
6.85E13	-0.19714
6.9E13	-0.19635
6.95E13	-0.19628
7E13	-0.19911
7.05E13	-0.19923
7.1E13	-0.19894
7.15E13	-0.2012
7.2E13	-0.20322
7.25E13	-0.20246
7.3E13	-0.20244
7.35E13	-0.20303
7.4E13	-0.20515
7.45E13	-0.20545
7.5E13	-0.20599
7.55E13	-0.20558
7.6E13	-0.20551
7.65E13	-0.20865
7.7E13	-0.20767
7.75E13	-0.20733
7.8E13	-0.20909
7.85E13	-0.21008
7.9E13	-0.2091
7.95E13	-0.2086
8E13	-0.21086
8.05E13	-0.21072
8.1E13	-0.21087
8.15E13	-0.21069
8.2E13	-0.2101
8.25E13	-0.21203
8.3E13	-0.2132
8.35E13	-0.21236
8.4E13	-0.21201
8.45E13	-0.21387
8.5E13	-0.21269
8.55E13	-0.21381
8.6E13	-0.21375
8.65E13	-0.21425
8.7E13	-0.21381
8.75E13	-0.2136
8.8E13	-0.21475
8.85E13	-0.21539
8.9E13	-0.21383
8.95E13	-0.21384
9E13	-0.21503
9.05E13	-0.21338
9.1E13	-0.21383
9.15E13	-0.21214
9.2E13	-0.21352
9.25E13	-0.21302
9.3E13	-0.21261
9.35E13	-0.21432
9.4E13	-0.21481
9.45E13	-0.21336
9.5E13	-0.21239
9.55E13	-0.20773
9.6E13	-0.20362
9.65E13	-0.19882
9.7E13	-0.19751
9.75E13	-0.19763
9.8E13	-0.19834
9.85E13	-0.19824
9.9E13	-0.19747
9.95E13	-0.19759
1E14	-0.19693
1.005E14	-0.1956
1.01E14	-0.19616
1.015E14	-0.19691
1.02E14	-0.19718
1.025E14	-0.19589
1.03E14	-0.1944
1.035E14	-0.19647
1.04E14	-0.19389
1.045E14	-0.19379
1.05E14	-0.19539
1.055E14	-0.19387
1.06E14	-0.19416
1.065E14	-0.18925
1.07E14	-0.19338
1.075E14	-0.19109
1.08E14	-0.19363
1.085E14	-0.19033
1.09E14	-0.18749
1.095E14	-0.18845
1.1E14	-0.18931
1.105E14	-0.1862
1.11E14	-0.18907
1.115E14	-0.18739
1.12E14	-0.18675
1.125E14	-0.18616
1.13E14	-0.18617
1.135E14	-0.18183
1.14E14	-0.18329
1.145E14	-0.18381
1.15E14	-0.18294
1.155E14	-0.17996
1.16E14	-0.1813
1.165E14	-0.18099
1.17E14	-0.17916
1.175E14	-0.18042
1.18E14	-0.17716
1.185E14	-0.17803
1.19E14	-0.17683
1.195E14	-0.1756
1.2E14	-0.17641
1.205E14	-0.17342
1.21E14	-0.17448
1.215E14	-0.17467
1.22E14	-0.17177
1.225E14	-0.16963
1.23E14	-0.16837
1.235E14	-0.1705
1.24E14	-0.16881
1.245E14	-0.1643
1.25E14	-0.16912
1.255E14	-0.16509
1.26E14	-0.16358
1.265E14	-0.16372
1.27E14	-0.16261
1.275E14	-0.16041
1.28E14	-0.1603
1.285E14	-0.16096
1.29E14	-0.15896
1.295E14	-0.15409
1.3E14	-0.15457
1.305E14	-0.15557
1.31E14	-0.1537
1.315E14	-0.15535
1.32E14	-0.15166
1.325E14	-0.14636
1.33E14	-0.14731
1.335E14	-0.14779
1.34E14	-0.14701
1.345E14	-0.1453
1.35E14	-0.14685
1.355E14	-0.14219
1.36E14	-0.13953
1.365E14	-0.14118
1.37E14	-0.14032
1.375E14	-0.13913
1.38E14	-0.14031
1.385E14	-0.13362
1.39E14	-0.1333
1.395E14	-0.13367
1.4E14	-0.12991
1.405E14	-0.12963
1.41E14	-0.13041
1.415E14	-0.12561
1.42E14	-0.12327
1.425E14	-0.1255
1.43E14	-0.11107
1.435E14	-0.09712
1.44E14	-0.09171
1.445E14	-0.10165
1.45E14	-0.10324
1.455E14	-0.10204
1.46E14	-0.09886
1.465E14	-0.10087
1.47E14	-0.09542
1.475E14	-0.09586
1.48E14	-0.09538
1.485E14	-0.0892
1.49E14	-0.09461
1.495E14	-0.08983
1.5E14	-0.09072