Frequency (Hz)  beta (rad/m)
2.5E13	-0.28982
2.55E13	-0.28975
2.6E13	-0.28876
2.65E13	-0.28546
2.7E13	-0.2821
2.75E13	-0.27687
2.8E13	-0.27012
2.85E13	-0.26341
2.9E13	-0.25651
2.95E13	-0.24853
3E13	-0.24008
3.05E13	-0.23046
3.1E13	-0.219
3.15E13	-0.21107
3.2E13	-0.20086
3.25E13	-0.19146
3.3E13	-0.18054
3.35E13	-0.17127
3.4E13	-0.16235
3.45E13	-0.15395
3.5E13	-0.14675
3.55E13	-0.13949
3.6E13	-0.13375
3.65E13	-0.12794
3.7E13	-0.12415
3.75E13	-0.12199
3.8E13	-0.12052
3.85E13	-0.11841
3.9E13	-0.11877
3.95E13	-0.12023
4E13	-0.12236
4.05E13	-0.12354
4.1E13	-0.12825
4.15E13	-0.12981
4.2E13	-0.13455
4.25E13	-0.13964
4.3E13	-0.14568
4.35E13	-0.14973
4.4E13	-0.15473
4.45E13	-0.15919
4.5E13	-0.16397
4.55E13	-0.17071
4.6E13	-0.1777
4.65E13	-0.18122
4.7E13	-0.19065
4.75E13	-0.1973
4.8E13	-0.20103
4.85E13	-0.20762
4.9E13	-0.21255
4.95E13	-0.21751
5E13	-0.22473
5.05E13	-0.22931
5.1E13	-0.23418
5.15E13	-0.24054
5.2E13	-0.24636
5.25E13	-0.25304
5.3E13	-0.25669
5.35E13	-0.26365
5.4E13	-0.26897
5.45E13	-0.27626
5.5E13	-0.28382
5.55E13	-0.28938
5.6E13	-0.29488
5.65E13	-0.30365
5.7E13	-0.31004
5.75E13	-0.31732
5.8E13	-0.32393
5.85E13	-0.33159
5.9E13	-0.34185
5.95E13	-0.35002
6E13	-0.35972
6.05E13	-0.36655
6.1E13	-0.37775
6.15E13	-0.38725
6.2E13	-0.39765
6.25E13	-0.40844
6.3E13	-0.419
6.35E13	-0.43252
6.4E13	-0.44338
6.45E13	-0.45617
6.5E13	-0.46787
6.55E13	-0.47913
6.6E13	-0.49099
6.65E13	-0.50195
6.7E13	-0.5166
6.75E13	-0.52742
6.8E13	-0.53126
6.85E13	-0.53454
6.9E13	-0.53208
6.95E13	-0.52568
7E13	-0.51534
7.05E13	-0.49956
7.1E13	-0.47907
7.15E13	-0.45422
7.2E13	-0.42779
7.25E13	-0.40207
7.3E13	-0.37722
7.35E13	-0.3513
7.4E13	-0.33154
7.45E13	-0.31231
7.5E13	-0.29795
7.55E13	-0.28398
7.6E13	-0.27407
7.65E13	-0.267
7.7E13	-0.26053
7.75E13	-0.25687
7.8E13	-0.25286
7.85E13	-0.25297
7.9E13	-0.25273
7.95E13	-0.25256
8E13	-0.25385
8.05E13	-0.25616
8.1E13	-0.25887
8.15E13	-0.25907
8.2E13	-0.26135
8.25E13	-0.26397
8.3E13	-0.26891
8.35E13	-0.27214
8.4E13	-0.27436
8.45E13	-0.27878
8.5E13	-0.28217
8.55E13	-0.28645
8.6E13	-0.28794
8.65E13	-0.29166
8.7E13	-0.29475
8.75E13	-0.30076
8.8E13	-0.30234
8.85E13	-0.30468
8.9E13	-0.31024
8.95E13	-0.31405
9E13	-0.3164
9.05E13	-0.31987
9.1E13	-0.32143
9.15E13	-0.32496
9.2E13	-0.33382
9.25E13	-0.33406
9.3E13	-0.33676
9.35E13	-0.34179
9.4E13	-0.34401
9.45E13	-0.3467
9.5E13	-0.35305
9.55E13	-0.35748
9.6E13	-0.36469
9.65E13	-0.36929
9.7E13	-0.37314
9.75E13	-0.37702
9.8E13	-0.38114
9.85E13	-0.38243
9.9E13	-0.38542
9.95E13	-0.38704
1E14	-0.39019
1.005E14	-0.39572
1.01E14	-0.39636
1.015E14	-0.39967
1.02E14	-0.40245
1.025E14	-0.4053
1.03E14	-0.4062
1.035E14	-0.41043
1.04E14	-0.41288
1.045E14	-0.41757
1.05E14	-0.41884
1.055E14	-0.42032
1.06E14	-0.42633
1.065E14	-0.42726
1.07E14	-0.4293
1.075E14	-0.43413
1.08E14	-0.43738
1.085E14	-0.43823
1.09E14	-0.44058
1.095E14	-0.44397
1.1E14	-0.44771
1.105E14	-0.45135
1.11E14	-0.45389
1.115E14	-0.45621
1.12E14	-0.45899
1.125E14	-0.46121
1.13E14	-0.46549
1.135E14	-0.46564
1.14E14	-0.47042
1.145E14	-0.47314
1.15E14	-0.47392
1.155E14	-0.47835
1.16E14	-0.48303
1.165E14	-0.48401
1.17E14	-0.48759
1.175E14	-0.49148
1.18E14	-0.49404
1.185E14	-0.49599
1.19E14	-0.49919
1.195E14	-0.50274
1.2E14	-0.50685
1.205E14	-0.51042
1.21E14	-0.51326
1.215E14	-0.51695
1.22E14	-0.5212
1.225E14	-0.52518
1.23E14	-0.52833
1.235E14	-0.53185
1.24E14	-0.53599
1.245E14	-0.54052
1.25E14	-0.54654
1.255E14	-0.54956
1.26E14	-0.55333
1.265E14	-0.55895
1.27E14	-0.56214
1.275E14	-0.56794
1.28E14	-0.57199
1.285E14	-0.57715
1.29E14	-0.58119
1.295E14	-0.58331
1.3E14	-0.58826
1.305E14	-0.58846
1.31E14	-0.5892
1.315E14	-0.58502
1.32E14	-0.58018
1.325E14	-0.5733
1.33E14	-0.56509
1.335E14	-0.55053
1.34E14	-0.5338
1.345E14	-0.51805
1.35E14	-0.50093
1.355E14	-0.4839
1.36E14	-0.46863
1.365E14	-0.45548
1.37E14	-0.44751
1.375E14	-0.43836
1.38E14	-0.43371
1.385E14	-0.42992
1.39E14	-0.42925
1.395E14	-0.42999
1.4E14	-0.42749
1.405E14	-0.43031
1.41E14	-0.43331
1.415E14	-0.43476
1.42E14	-0.43829
1.425E14	-0.44026
1.43E14	-0.44781
1.435E14	-0.45233
1.44E14	-0.45605
1.445E14	-0.45759
1.45E14	-0.4573
1.455E14	-0.46053
1.46E14	-0.46423
1.465E14	-0.46629
1.47E14	-0.46777
1.475E14	-0.47337
1.48E14	-0.47408
1.485E14	-0.47514
1.49E14	-0.4791
1.495E14	-0.48046
1.5E14	-0.48316