Frequency (Hz)  beta (rad/m)
2.5E13	-0.04179
2.55E13	-0.03738
2.6E13	-0.02883
2.65E13	-0.02332
2.7E13	-0.01765
2.75E13	-0.01168
2.8E13	-0.0125
2.85E13	-0.00988
2.9E13	-0.008
2.95E13	-0.00943
3E13	-0.00869
3.05E13	-0.01419
3.1E13	-0.01703
3.15E13	-0.021
3.2E13	-0.0267
3.25E13	-0.02916
3.3E13	-0.03852
3.35E13	-0.04514
3.4E13	-0.05353
3.45E13	-0.063
3.5E13	-0.06802
3.55E13	-0.07759
3.6E13	-0.08296
3.65E13	-0.09047
3.7E13	-0.09724
3.75E13	-0.10116
3.8E13	-0.10585
3.85E13	-0.10992
3.9E13	-0.1144
3.95E13	-0.11991
4E13	-0.12538
4.05E13	-0.13351
4.1E13	-0.13944
4.15E13	-0.14655
4.2E13	-0.1546
4.25E13	-0.16123
4.3E13	-0.16794
4.35E13	-0.17524
4.4E13	-0.18215
4.45E13	-0.18796
4.5E13	-0.19273
4.55E13	-0.19755
4.6E13	-0.20325
4.65E13	-0.20752
4.7E13	-0.21063
4.75E13	-0.21173
4.8E13	-0.21888
4.85E13	-0.22225
4.9E13	-0.22543
4.95E13	-0.22981
5E13	-0.23118
5.05E13	-0.23609
5.1E13	-0.23912
5.15E13	-0.2415
5.2E13	-0.24253
5.25E13	-0.24555
5.3E13	-0.24904
5.35E13	-0.25207
5.4E13	-0.25475
5.45E13	-0.25652
5.5E13	-0.26004
5.55E13	-0.26238
5.6E13	-0.26317
5.65E13	-0.26411
5.7E13	-0.26832
5.75E13	-0.26859
5.8E13	-0.27029
5.85E13	-0.27227
5.9E13	-0.273
5.95E13	-0.27508
6E13	-0.27439
6.05E13	-0.27649
6.1E13	-0.27645
6.15E13	-0.27576
6.2E13	-0.27708
6.25E13	-0.27517
6.3E13	-0.27582
6.35E13	-0.27565
6.4E13	-0.27366
6.45E13	-0.27323
6.5E13	-0.27053
6.55E13	-0.26553
6.6E13	-0.26175
6.65E13	-0.25217
6.7E13	-0.241
6.75E13	-0.22582
6.8E13	-0.21612
6.85E13	-0.20324
6.9E13	-0.19081
6.95E13	-0.17332
7E13	-0.16014
7.05E13	-0.14822
7.1E13	-0.14008
7.15E13	-0.13137
7.2E13	-0.12913
7.25E13	-0.13181
7.3E13	-0.13656
7.35E13	-0.14578
7.4E13	-0.15398
7.45E13	-0.16185
7.5E13	-0.17128
7.55E13	-0.17872
7.6E13	-0.1868
7.65E13	-0.19418
7.7E13	-0.20092
7.75E13	-0.20752
7.8E13	-0.21158
7.85E13	-0.21695
7.9E13	-0.22071
7.95E13	-0.22534
8E13	-0.22886
8.05E13	-0.23058
8.1E13	-0.23241
8.15E13	-0.23571
8.2E13	-0.23799
8.25E13	-0.24133
8.3E13	-0.24307
8.35E13	-0.24339
8.4E13	-0.24376
8.45E13	-0.2458
8.5E13	-0.24863
8.55E13	-0.25077
8.6E13	-0.25087
8.65E13	-0.24869
8.7E13	-0.25088
8.75E13	-0.24956
8.8E13	-0.24976
8.85E13	-0.24917
8.9E13	-0.24904
8.95E13	-0.24903
9E13	-0.24912
9.05E13	-0.24886
9.1E13	-0.24818
9.15E13	-0.24604
9.2E13	-0.2429
9.25E13	-0.24187
9.3E13	-0.24068
9.35E13	-0.23358
9.4E13	-0.23586
9.45E13	-0.23208
9.5E13	-0.2243
9.55E13	-0.21522
9.6E13	-0.20355
9.65E13	-0.18995
9.7E13	-0.18488
9.75E13	-0.17443
9.8E13	-0.1672
9.85E13	-0.16065
9.9E13	-0.1473
9.95E13	-0.13605
1E14	-0.11864
1.005E14	-0.10764
1.01E14	-0.08787
1.015E14	-0.0739
1.02E14	-0.05502
1.025E14	-0.03923
1.03E14	-0.02454
1.035E14	-0.00921
1.04E14	-0.00112
1.045E14	0.00514
1.05E14	0.00821
1.055E14	0.00629
1.06E14	0.00477
1.065E14	-0.00444
1.07E14	-0.01279
1.075E14	-0.02399
1.08E14	-0.03448
1.085E14	-0.04569
1.09E14	-0.05748
1.095E14	-0.06689
1.1E14	-0.07716
1.105E14	-0.08561
1.11E14	-0.09509
1.115E14	-0.10358
1.12E14	-0.10873
1.125E14	-0.11466
1.13E14	-0.12183
1.135E14	-0.12596
1.14E14	-0.13114
1.145E14	-0.13641
1.15E14	-0.13891
1.155E14	-0.14285
1.16E14	-0.14594
1.165E14	-0.14801
1.17E14	-0.14892
1.175E14	-0.15338
1.18E14	-0.15639
1.185E14	-0.15704
1.19E14	-0.15541
1.195E14	-0.15863
1.2E14	-0.15683
1.205E14	-0.16103
1.21E14	-0.16156
1.215E14	-0.15859
1.22E14	-0.16056
1.225E14	-0.16224
1.23E14	-0.16225
1.235E14	-0.16436
1.24E14	-0.16011
1.245E14	-0.16098
1.25E14	-0.16077
1.255E14	-0.16368
1.26E14	-0.16002
1.265E14	-0.15909
1.27E14	-0.16176
1.275E14	-0.15751
1.28E14	-0.1544
1.285E14	-0.15469
1.29E14	-0.15667
1.295E14	-0.15087
1.3E14	-0.14967
1.305E14	-0.14364
1.31E14	-0.14349
1.315E14	-0.1412
1.32E14	-0.1336
1.325E14	-0.13248
1.33E14	-0.12786
1.335E14	-0.1233
1.34E14	-0.12094
1.345E14	-0.11892
1.35E14	-0.11787
1.355E14	-0.11635
1.36E14	-0.12009
1.365E14	-0.11886
1.37E14	-0.12027
1.375E14	-0.12036
1.38E14	-0.11973
1.385E14	-0.12007
1.39E14	-0.12243
1.395E14	-0.1204
1.4E14	-0.11975
1.405E14	-0.12132
1.41E14	-0.12448
1.415E14	-0.11933
1.42E14	-0.11724
1.425E14	-0.11837
1.43E14	-0.10596
1.435E14	-0.0915
1.44E14	-0.08283
1.445E14	-0.09027
1.45E14	-0.09565
1.455E14	-0.0972
1.46E14	-0.0938
1.465E14	-0.09298
1.47E14	-0.09067
1.475E14	-0.09331
1.48E14	-0.09011
1.485E14	-0.09233
1.49E14	-0.08506
1.495E14	-0.08919
1.5E14	-0.08489